MD;Ele;Ele5;EleSimp;EleSimp5;UpscaledThinLayerRemoval;UpscaledThinLayerRemovalSimp;AMPCONS;INSPHASE;RAI;RMS;FLAT;SWT
4984.204301;2;3;2;3;3;3;0.446289539;-66.41707611;-92399.36719;43208.64453;0.016596444;59909.44141
4984.356701;2;3;2;3;3;3;0.446315914;-65.62174225;-91292.71094;43121.32422;0.016767191;59863.41406
4984.509101;3;3;3;3;3;3;0.446342319;-64.82640839;-90186.05469;43034.00391;0.016937934;59817.38672
4984.661501;3;3;3;3;3;3;0.446368694;-64.03106689;-89079.42969;42946.69141;0.017108675;59771.36328
4984.813901;3;3;3;3;3;3;0.446395069;-63.2357254;-87972.80469;42859.375;0.017279415;59725.33594
4984.966301;3;3;3;3;3;3;0.446421474;-62.44038391;-86866.21094;42772.06641;0.017450154;59679.3125
4985.118701;3;3;3;3;3;3;0.446447849;-61.64504242;-85759.625;42684.75391;0.017620886;59633.28906
4985.271101;3;3;3;3;3;3;0.446474224;-60.8496933;-84653.0625;42597.44531;0.017791625;59587.26563
4985.423501;3;3;3;3;3;3;0.446500629;-60.05434036;-83546.50781;42510.14063;0.017962357;59541.24219
4985.575901;3;3;3;3;3;3;0.446527004;-59.25898743;-82439.97656;42422.83594;0.018133087;59495.22266
4985.728301;3;3;3;3;3;3;0.446553409;-58.46363449;-81333.45313;42335.53125;0.018303817;59449.19922
4985.880701;2;3;2;3;3;3;0.446579784;-57.66827774;-80226.95313;42248.23047;0.018474547;59403.17969
4986.033101;2;3;2;3;3;3;0.446606189;-56.87292099;-79120.46875;42160.93359;0.018645277;59357.16016
4986.185501;2;3;2;3;3;3;0.446632564;-56.07755661;-78014;42073.63672;0.018815998;59311.14453
4986.337901;3;3;3;3;3;3;0.446658969;-55.28219223;-76907.53906;41986.33984;0.018986719;59265.125
4986.490301;3;3;3;3;3;3;0.446685374;-54.48682404;-75801.10156;41899.04688;0.019157447;59219.10938
4986.642701;3;3;3;3;3;3;0.446711749;-53.69145584;-74694.6875;41811.75781;0.019328168;59173.09375
4986.795101;3;3;3;3;3;3;0.446738154;-52.89608383;-73588.28125;41724.46875;0.019498888;59127.08203
4986.947501;3;3;3;3;3;3;0.446764559;-52.10071182;-72481.89063;41637.17969;0.019669602;59081.06641
4987.099901;3;3;3;3;3;3;0.446790963;-51.305336;-71375.51563;41549.89453;0.019840319;59035.05469
4987.252301;3;3;3;3;3;3;0.446817368;-50.50996017;-70269.16406;41462.60938;0.020011032;58989.04297
4987.404701;3;3;3;3;3;3;0.446843743;-49.71457672;-69162.82031;41375.32422;0.020181749;58943.03125
4987.557101;3;3;3;3;3;3;0.446870148;-48.91919327;-68056.5;41288.04688;0.020352453;58897.01953
4987.709501;3;3;3;3;3;3;0.446896553;-48.12380981;-66950.1875;41200.76953;0.020523161;58851.01172
4987.861901;3;3;3;3;3;3;0.446920425;-47.32826996;-65814.85938;41111.96094;0.02071083;58807.98438
4988.014301;2;3;2;3;3;3;0.446920604;-46.53134155;-64408.22266;41008.85156;0.021056933;58792.83203
4988.166701;2;3;2;3;3;3;0.446913302;-45.73396301;-62915.54688;40901.20703;0.021453284;58786.51953
4988.319101;2;3;2;3;3;3;0.446905971;-44.93658447;-61422.88281;40793.5625;0.021849627;58780.21094
4988.471501;2;3;2;3;3;3;0.446898669;-44.13920593;-59930.22266;40685.91406;0.02224596;58773.89844
4988.623901;2;3;2;3;3;3;0.446891338;-43.34182358;-58437.57031;40578.26953;0.02264229;58767.58984
4988.776301;3;3;3;3;3;3;0.446884036;-42.54443741;-56944.92578;40470.62109;0.02303862;58761.28516
4988.928701;3;3;3;3;3;3;0.446876735;-41.74705124;-55452.28516;40362.97266;0.023434941;58754.97656
4989.081101;3;3;3;3;3;3;0.446869433;-40.94965744;-53959.65234;40255.32422;0.023831261;58748.66797
4989.233501;3;3;3;3;3;3;0.446862131;-40.15226746;-52467.02344;40147.67578;0.024227575;58742.36719
4989.385901;3;3;3;3;3;3;0.44685483;-39.35487366;-50974.40234;40040.02734;0.024623884;58736.0625
4989.538301;3;3;3;3;3;3;0.446847528;-38.55747604;-49481.78906;39932.375;0.025020188;58729.76172
4989.690701;3;3;3;3;3;3;0.446840257;-37.76007843;-47989.17578;39824.72656;0.025416488;58723.46094
4989.843101;3;3;3;3;3;3;0.446832955;-36.96267319;-46496.57813;39717.07422;0.025812779;58717.16406
4989.995501;3;3;3;3;3;3;0.446825683;-36.16527176;-45003.98047;39609.42188;0.026209069;58710.86719
4990.147901;3;3;3;3;3;3;0.446818411;-35.3678627;-43511.39063;39501.77344;0.026605358;58704.57031
4990.300301;3;3;3;3;3;3;0.44681114;-34.57045364;-42018.80859;39394.12109;0.027001642;58698.27344
4990.452701;3;3;3;3;3;3;0.446803868;-33.77304459;-40526.23047;39286.46875;0.027397923;58691.98047
4990.605101;3;3;3;3;3;3;0.446796596;-32.97563171;-39033.66016;39178.8125;0.027794195;58685.6875
4990.757501;3;3;3;3;3;3;0.446789324;-32.17821503;-37541.09375;39071.16016;0.028190464;58679.39453
4990.909901;3;3;3;3;3;3;0.446782082;-31.38079643;-36048.53516;38963.50781;0.028586727;58673.10156
4991.062301;3;3;3;3;3;3;0.44677484;-30.58337593;-34555.98438;38855.85156;0.028982986;58666.8125
4991.214701;3;3;3;3;3;3;0.446767569;-29.78595352;-33063.44141;38748.19531;0.029379239;58660.52344
4991.367101;2;3;2;3;3;3;0.446760327;-28.9885273;-31570.90234;38640.54297;0.029775489;58654.23828
4991.519501;2;3;2;3;3;3;0.446753085;-28.19109917;-30078.36914;38532.88672;0.030171741;58647.95313
4991.671901;2;3;2;3;3;3;0.446745873;-27.39367104;-28585.8418;38425.22656;0.030567981;58641.66797
4991.824301;3;3;3;3;3;3;0.446738631;-26.59623718;-27093.32031;38317.57031;0.030964214;58635.38281
4991.976701;3;3;3;3;3;3;0.446731389;-25.79880333;-25600.80664;38209.91016;0.031360451;58629.10156
4992.129101;3;3;3;3;3;3;0.446724176;-25.00136757;-24108.30078;38102.25391;0.031756677;58622.82031
4992.281501;3;3;3;3;3;3;0.446716934;-24.20392609;-22615.80078;37994.59375;0.032152899;58616.54297
4992.433901;3;3;3;3;3;3;0.446709722;-23.4064846;-21123.30469;37886.93359;0.032549117;58610.26172
4992.586301;3;3;3;3;3;3;0.44670251;-22.60904121;-19630.81641;37779.27344;0.032945339;58603.98438
4992.738701;3;3;3;3;3;3;0.446695298;-21.81159401;-18138.33398;37671.61328;0.033341549;58597.70703
4992.891101;3;3;3;3;3;3;0.446662784;-21.0092659;-16642.91797;37579.49609;0.033817373;58577.39453
4993.043501;3;3;3;3;3;3;0.446560383;-20.19346237;-15139.3877;37530.28516;0.034512982;58518.33594
4993.195901;3;3;3;3;3;3;0.446437746;-19.3737545;-13633.50098;37493.5;0.035272218;58448.05859
4993.348301;3;3;3;3;3;3;0.44631511;-18.55404282;-12127.61035;37456.71484;0.03603144;58377.78516
4993.500701;4;3;3;3;3;3;0.446192473;-17.73433113;-10621.71387;37419.92188;0.036790662;58307.51172
4993.653101;4;3;3;3;3;3;0.446069866;-16.91461563;-9115.813477;37383.12891;0.037549868;58237.24219
4993.805501;4;3;3;3;3;3;0.44594726;-16.09489632;-7609.907715;37346.33203;0.03830906;58166.97266
4993.957901;3;3;3;3;3;3;0.445824653;-15.27517509;-6103.996582;37309.53516;0.039068233;58096.70313
4994.110301;3;3;3;3;3;3;0.445702046;-14.45545197;-4598.080566;37272.73438;0.039827403;58026.4375
4994.262701;3;3;3;3;3;3;0.445579439;-13.63572598;-3092.15918;37235.93359;0.040586557;57956.17188
4994.415101;3;3;3;3;3;3;0.445456833;-12.81599712;-1586.232788;37199.12891;0.041345708;57885.90625
4994.567501;3;3;3;3;3;3;0.445334226;-11.99626541;-80.30142975;37162.32031;0.042104837;57815.64453
4994.719901;3;3;3;3;3;3;0.445211649;-11.17653179;1425.63501;37125.50781;0.042863965;57745.38672
4994.872301;3;3;3;3;3;3;0.445089042;-10.35679436;2931.576416;37088.69531;0.043623067;57675.12891
4995.024701;3;3;3;3;3;3;0.444966465;-9.537055016;4437.522949;37051.87891;0.04438217;57604.87109
4995.177101;3;3;3;3;3;3;0.444843888;-8.717312813;5943.475098;37015.0625;0.045141257;57534.61719
4995.329501;3;3;3;3;3;3;0.444721341;-7.897568226;7449.431641;36978.24609;0.045900326;57464.36719
4995.481901;3;3;3;3;3;3;0.444598764;-7.077820778;8955.393555;36941.42188;0.046659391;57394.11328
4995.634301;3;3;3;3;3;3;0.444476217;-6.258070946;10461.36035;36904.59766;0.047418445;57323.86328
4995.786701;3;3;3;3;3;3;0.44435367;-5.438317776;11967.33203;36867.76953;0.048177484;57253.61719
4995.939101;3;3;3;3;3;3;0.444231123;-4.618562222;13473.30957;36830.94141;0.04893652;57183.36719
4996.091501;3;3;3;3;3;3;0.444108576;-3.798804283;14979.29199;36794.10938;0.049695533;57113.125
4996.243901;3;3;3;3;3;3;0.443986028;-2.979043484;16485.2793;36757.27734;0.050454535;57042.88281
4996.396301;4;3;3;3;3;3;0.443863511;-2.159280062;17991.27148;36720.4375;0.051213529;56972.64063
4996.548701;4;3;3;3;3;3;0.443740964;-1.339514136;19497.26953;36683.59766;0.051972508;56902.40234
4996.701101;4;3;3;3;3;3;0.443618447;-0.519745469;21003.27148;36646.75781;0.052731484;56832.16797
4996.853501;4;3;3;3;3;3;0.443495929;0.30002588;22509.27734;36609.91016;0.053490438;56761.92969
4997.005901;4;3;3;3;3;3;0.443373412;1.119799852;24015.29102;36573.06641;0.054249387;56691.69531
4997.158301;4;3;3;3;3;3;0.443250924;1.939576507;25521.30859;36536.21875;0.055008326;56621.46094
4997.310701;4;4;3;3;4;3;0.443128407;2.759355784;27027.33008;36499.36719;0.055767246;56551.23047
4997.463101;4;4;3;3;4;3;0.44300592;3.579137802;28533.35938;36462.51172;0.056526158;56481.00391
4997.615501;4;4;3;3;4;3;0.442883402;4.398922443;30039.39063;36425.65625;0.057285063;56410.77344
4997.767901;4;4;3;3;4;3;0.442760915;5.218709946;31545.42773;36388.79688;0.058043946;56340.55078
4997.920301;4;4;3;3;4;3;0.44260025;6.024514675;32940.10156;36379.11719;0.058693003;56267.22266
4998.072701;4;4;3;3;4;3;0.442386121;6.810750008;34178.91797;36407.48047;0.05918837;56189.55469
4998.225101;4;4;3;3;4;3;0.44215855;7.592066288;35378.55078;36445.41016;0.05964509;56110.79688
4998.377501;4;4;3;3;4;3;0.44193098;8.373385429;36578.19531;36483.33594;0.060101811;56032.03906
4998.529901;4;4;3;3;4;3;0.441703409;9.154706001;37777.85156;36521.26172;0.060558539;55953.28125
4998.682301;4;4;3;3;4;3;0.441475868;9.936030388;38977.52344;36559.1875;0.061015271;55874.53125
4998.834701;4;4;3;3;4;3;0.441248298;10.71735764;40177.20703;36597.10938;0.061471999;55795.77734
4998.987101;4;4;3;3;4;3;0.441020757;11.49868679;41376.90625;36635.03125;0.061928734;55717.02734
4999.139501;4;4;3;3;4;3;0.440793216;12.28001881;42576.61719;36672.94922;0.062385477;55638.27734
4999.291901;4;4;3;3;4;3;0.440565676;13.06135464;43776.33984;36710.86719;0.06284222;55559.53125
4999.444301;4;4;3;3;4;3;0.440338135;13.84269142;44976.07813;36748.78125;0.063298971;55480.78516
4999.596701;4;4;3;3;4;3;0.440110594;14.62403202;46175.82813;36786.69531;0.063755721;55402.04297
4999.749101;4;4;3;3;4;3;0.439883053;15.40537548;47375.58984;36824.60938;0.064212479;55323.30078
4999.901501;3;4;3;3;4;3;0.439655513;16.18671989;48575.36719;36862.51953;0.064669229;55244.55859
5000.053901;3;4;3;3;4;3;0.439427972;16.96806908;49775.15234;36900.42969;0.065125994;55165.81641
5000.206301;4;4;3;3;4;3;0.439200431;17.74942017;50974.95703;36938.33984;0.065582767;55087.07813
5000.358701;4;4;3;3;4;3;0.43897292;18.53077316;52174.76953;36976.24609;0.06603954;55008.34375
5000.511101;4;4;3;3;4;3;0.438745379;19.31212997;53374.59766;37014.14844;0.066496313;54929.60938
5000.663501;3;4;3;3;4;3;0.438517869;20.0934906;54574.44141;37052.05469;0.066953093;54850.87891
5000.815901;3;4;3;3;4;3;0.438290328;20.87485123;55774.29297;37089.95313;0.067409873;54772.14844
5000.968301;3;4;3;3;4;3;0.438062817;21.65621567;56974.16016;37127.85547;0.067866668;54693.41797
5001.120701;3;4;3;3;4;3;0.437835306;22.43758392;58174.03906;37165.75391;0.068323456;54614.69141
5001.273101;3;4;3;3;4;3;0.437607795;23.21895218;59373.92969;37203.64844;0.068780243;54535.96484
5001.425501;3;4;3;3;4;3;0.437380284;24.00032616;60573.83594;37241.54297;0.069237039;54457.23828
5001.577901;3;4;3;3;4;3;0.437152803;24.78170204;61773.75781;37279.4375;0.069693841;54378.51172
5001.730301;4;4;3;3;4;3;0.436925292;25.56307793;62973.69141;37317.33203;0.070150644;54299.79297
5001.882701;4;4;3;3;4;3;0.436697781;26.34445953;64173.63281;37355.22266;0.070607454;54221.07422
5002.035101;4;4;3;3;4;3;0.4364703;27.12584305;65373.59375;37393.11328;0.071064264;54142.35547
5002.187501;4;4;3;3;4;3;0.436242819;27.90722847;66573.5625;37431;0.071521089;54063.64063
5002.339901;4;4;3;3;4;3;0.436015308;28.68861771;67773.54688;37468.88672;0.071977906;53984.92578
5002.492301;4;4;3;3;4;3;0.435787827;29.47000885;68973.54688;37506.76953;0.072434723;53906.21094
5002.644701;4;4;3;3;4;3;0.435560346;30.25140381;70173.55469;37544.65234;0.072891563;53827.5
5002.797101;4;4;3;3;4;3;0.435332865;31.03280067;71373.57813;37582.53125;0.073348396;53748.78906
5002.949501;4;4;3;3;4;3;0.435098648;31.83130646;72292.91406;37621.40625;0.073630989;53671.52734
5003.101901;4;4;3;3;4;3;0.434858978;32.64369583;72984.50781;37661.08594;0.073772222;53595.4375
5003.254301;4;4;3;3;4;3;0.434618175;33.45880127;73631.57813;37700.92188;0.073885836;53519.57813
5003.406701;4;4;3;3;4;3;0.434377402;34.27391052;74278.65625;37740.76172;0.073999472;53443.72266
5003.559101;4;4;3;3;4;3;0.434136629;35.08902359;74925.75781;37780.60156;0.074113123;53367.86328
5003.711501;4;4;3;3;4;3;0.433895856;35.90413666;75572.86719;37820.44531;0.074226804;53292.00781
5003.863901;4;4;3;3;4;3;0.433655053;36.71925354;76220;37860.28906;0.074340515;53216.15234
5004.016301;4;4;3;3;4;3;0.43341428;37.53437424;76867.14063;37900.13281;0.074454233;53140.29297
5004.168701;4;4;3;3;4;3;0.433173478;38.34949875;77514.30469;37939.97656;0.074567996;53064.4375
5004.321101;4;4;3;3;4;3;0.432932705;39.16462708;78161.47656;37979.82422;0.074681766;52988.58203
5004.473501;4;4;3;3;4;3;0.432691902;39.9797554;78808.67188;38019.67188;0.074795559;52912.72656
5004.625901;4;4;3;3;4;3;0.432451099;40.79488373;79455.86719;38059.51953;0.074909382;52836.875
5004.778301;4;4;3;3;4;3;0.432210326;41.61001968;80103.09375;38099.36719;0.075023234;52761.01953
5004.930701;4;4;3;3;4;3;0.431969523;42.42515564;80750.32813;38139.21484;0.075137101;52685.16406
5005.083101;4;4;3;3;4;3;0.431728721;43.24029923;81397.58594;38179.06641;0.075250991;52609.3125
5005.235501;4;4;3;3;4;3;0.431487918;44.05544281;82044.85156;38218.92188;0.07536491;52533.45703
5005.387901;4;4;3;3;4;3;0.431247115;44.8705864;82692.13281;38258.77734;0.075478844;52457.60547
5005.540301;4;4;3;3;4;3;0.431006312;45.6857338;83339.42969;38298.63281;0.075592808;52381.75391
5005.692701;4;4;3;3;4;3;0.43076551;46.50088501;83986.75;38338.48828;0.075706787;52305.90234
5005.845101;4;4;3;3;4;3;0.430524707;47.31604004;84634.07813;38378.34766;0.075820796;52230.05078
5005.997501;4;4;3;3;4;3;0.430283874;48.13119888;85281.42188;38418.20703;0.075934827;52154.19922
5006.149901;4;4;3;3;4;3;0.430043072;48.94635773;85928.78125;38458.06641;0.076048888;52078.34766
5006.302301;4;4;3;3;4;3;0.429802269;49.76151657;86576.16406;38497.92578;0.076162964;52002.5
5006.454701;4;4;3;3;4;3;0.429561436;50.57668304;87223.54688;38537.78906;0.07627707;51926.64844
5006.607101;4;4;3;3;4;3;0.429320633;51.39185333;87870.96094;38577.65234;0.076391198;51850.80078
5006.759501;4;4;3;3;4;3;0.429079801;52.20702362;88518.375;38617.51563;0.076505341;51774.94922
5006.911901;4;4;3;3;4;3;0.428838998;53.02219772;89165.82031;38657.38281;0.076619513;51699.10156
5007.064301;4;4;3;3;4;3;0.428598166;53.83737564;89813.26563;38697.25;0.076733708;51623.25391
5007.216701;4;4;3;3;4;3;0.428357333;54.65255356;90460.74219;38737.11719;0.076847933;51547.40625
5007.369101;4;4;3;3;4;3;0.4281165;55.46773529;91108.21875;38776.98438;0.076962173;51471.55859
5007.521501;4;4;3;3;4;3;0.427875668;56.28292465;91755.72656;38816.85547;0.077076435;51395.71484
5007.673901;4;4;3;3;4;3;0.427634835;57.0981102;92403.23438;38856.73047;0.07719072;51319.86719
5007.826301;4;4;3;3;4;3;0.427394003;57.91329956;93050.77344;38896.60156;0.077305041;51244.02344
5007.978701;4;4;3;3;4;3;0.427221626;58.74954987;93251.25;38897.37109;0.076960154;51169.84766
5008.131101;4;4;3;3;4;3;0.42708233;59.59597778;93235.60156;38879.23828;0.076393247;51096.48047
5008.283501;3;4;3;3;4;3;0.426946521;60.44347763;93197.22656;38859.12109;0.075802967;51023.19531
5008.435901;3;4;3;3;4;3;0.426810712;61.29097748;93158.86719;38839.00781;0.07521268;50949.91016
5008.588301;3;4;3;3;4;3;0.426674873;62.13847733;93120.52344;38818.89453;0.074622393;50876.625
5008.740701;3;4;3;3;4;3;0.426539034;62.98597717;93082.19531;38798.78125;0.074032083;50803.33984
5008.893101;3;3;3;3;4;3;0.426403195;63.83348084;93043.88281;38778.67578;0.073441774;50730.05469
5009.045501;3;3;3;3;4;3;0.426267326;64.68097687;93005.58594;38758.57031;0.072851457;50656.76563
5009.197901;3;3;3;3;4;3;0.426131457;65.5284729;92967.3125;38738.46875;0.072261125;50583.48047
5009.350301;3;3;3;3;4;3;0.425995588;66.37597656;92929.04688;38718.37109;0.071670778;50510.19141
5009.502701;4;3;3;3;4;3;0.42585972;67.2234726;92890.80469;38698.27344;0.071080431;50436.90234
5009.655101;4;3;3;3;4;3;0.425723821;68.07096863;92852.57813;38678.18359;0.070490085;50363.61328
5009.807501;4;3;3;3;4;3;0.425587952;68.91846466;92814.36719;38658.09375;0.069899716;50290.32422
5009.959901;4;3;3;3;4;3;0.425452054;69.76596069;92776.17188;38638.00781;0.069309339;50217.03125
5010.112301;4;3;3;3;4;3;0.425316125;70.61345673;92738;38617.92188;0.068718962;50143.74219
5010.264701;3;3;3;3;4;3;0.425180227;71.46095276;92699.83594;38597.83984;0.068128564;50070.44922
5010.417101;3;3;3;3;4;3;0.425044298;72.30844879;92661.69531;38577.76172;0.067538165;49997.16016
5010.569501;3;3;3;3;4;3;0.42490837;73.15594482;92623.5625;38557.6875;0.066947751;49923.86719
5010.721901;3;3;3;3;4;3;0.424772441;74.00344086;92585.45313;38537.61719;0.066357337;49850.57422
5010.874301;3;3;3;3;4;3;0.424636513;74.85093689;92547.35938;38517.54688;0.065766901;49777.28125
5011.026701;2;3;2;3;3;3;0.424500555;75.69843292;92509.28125;38497.48047;0.065176472;49703.98438
5011.179101;2;3;2;3;3;3;0.424364626;76.54592896;92471.22656;38477.41406;0.064586029;49630.69141
5011.331501;3;3;3;3;3;3;0.424228638;77.39342499;92433.17969;38457.35547;0.06399557;49557.39453
5011.483901;3;3;3;3;3;3;0.42409268;78.24091339;92395.15625;38437.30078;0.063405104;49484.10156
5011.636301;3;3;3;3;3;3;0.423956692;79.08840942;92357.14063;38417.24609;0.062814638;49410.80469
5011.788701;3;3;3;3;3;3;0.423820704;79.93590546;92319.15625;38397.19531;0.06222415;49337.50781
5011.941101;3;3;3;3;3;3;0.423684716;80.78339386;92281.17188;38377.14453;0.061633661;49264.20703
5012.093501;3;3;3;3;3;3;0.423548728;81.63088989;92243.21875;38357.09766;0.061043162;49190.91016
5012.245901;3;3;3;3;3;3;0.42341271;82.4783783;92205.26563;38337.05469;0.060452655;49117.60938
5012.398301;3;3;3;3;3;3;0.423276693;83.32587433;92167.34375;38317.01563;0.059862137;49044.3125
5012.550701;4;3;3;3;3;3;0.423140675;84.17336273;92129.42969;38296.98047;0.059271615;48971.01172
5012.703101;3;3;3;3;3;3;0.423004657;85.02085877;92091.54688;38276.94531;0.058681082;48897.71094
5012.855501;3;3;3;3;3;3;0.422876537;85.8717041;92023.99219;38252.97266;0.058110945;48824.36719
5013.007901;3;3;3;3;3;3;0.422881067;86.77869415;91460.21875;38163.08984;0.057882227;48750.29688
5013.160301;3;3;3;3;3;3;0.422928304;87.7037735;90736.55469;38051.97266;0.057763506;48676
5013.312701;3;3;3;3;3;3;0.42297551;88.62884522;90012.89844;37940.85547;0.057644781;48601.70703
5013.465101;3;3;3;3;3;3;0.423022717;89.55391693;89289.26563;37829.74219;0.057526052;48527.41016
5013.617501;3;3;3;3;3;3;0.423069924;90.47898102;88565.64844;37718.63672;0.05740732;48453.11719
5013.769901;3;3;3;3;3;3;0.423117131;91.40404511;87842.04688;37607.52734;0.057288583;48378.82422
5013.922301;3;3;3;3;3;3;0.423164308;92.32910919;87118.46094;37496.42578;0.057169832;48304.53516
5014.074701;4;3;3;3;3;3;0.423211485;93.25416565;86394.89063;37385.32422;0.057051085;48230.24609
5014.227101;4;3;3;3;3;3;0.423258662;94.17922211;85671.34375;37274.22266;0.056932334;48155.95703
5014.379501;4;3;3;3;3;3;0.42330581;95.10427094;84947.80469;37163.12891;0.056813579;48081.67188
5014.531901;4;3;3;3;3;3;0.423352957;96.02931213;84224.28125;37052.03906;0.056694817;48007.38672
5014.684301;4;3;3;3;3;3;0.423400104;96.95435333;83500.78125;36940.94922;0.056576051;47933.10547
5014.836701;4;3;3;3;3;3;0.423447222;97.87939453;82777.28125;36829.86328;0.056457281;47858.82422
5014.989101;4;3;3;3;3;3;0.423494339;98.8044281;82053.8125;36718.77734;0.0563385;47784.54297
5015.141501;4;3;3;3;3;3;0.423541427;99.72946167;81330.35156;36607.69531;0.056219716;47710.26172
5015.293901;4;3;3;3;3;3;0.423588514;100.6544876;80606.91406;36496.61719;0.056100931;47635.98438
5015.446301;4;3;3;3;3;3;0.423635602;101.5795136;79883.48438;36385.54297;0.055982139;47561.71094
5015.598701;4;3;3;3;3;3;0.42368269;102.5045319;79160.07031;36274.47266;0.055863347;47487.43359
5015.751101;3;3;3;3;3;3;0.423729748;103.4295502;78436.67188;36163.40234;0.05574454;47413.16016
5015.903501;3;3;3;3;3;3;0.423776805;104.3545609;77713.29688;36052.33203;0.05562574;47338.88672
5016.055901;3;3;3;3;3;3;0.423823863;105.2795639;76989.92969;35941.26953;0.05550693;47264.61719
5016.208301;3;3;3;3;3;3;0.423870891;106.2045746;76266.58594;35830.20703;0.055388112;47190.34766
5016.360701;3;3;3;3;3;3;0.423917919;107.1295776;75543.25781;35719.14844;0.055269294;47116.07813
5016.513101;3;3;3;3;3;3;0.423964948;108.0545731;74819.94531;35608.09375;0.055150468;47041.8125
5016.665501;3;3;3;3;3;3;0.424011946;108.9795685;74096.64063;35497.04297;0.055031635;46967.54688
5016.817901;3;3;3;3;3;3;0.424058944;109.9045639;73373.35938;35385.99219;0.054912798;46893.28516
5016.970301;3;3;3;3;3;3;0.424105942;110.8295517;72650.08594;35274.94141;0.054793958;46819.02344
5017.122701;3;3;3;3;3;3;0.424152911;111.7545319;71926.83594;35163.89844;0.054675117;46744.76172
5017.275101;3;3;3;3;3;3;0.424199879;112.679512;71203.60156;35052.85547;0.054556269;46670.5
5017.427501;3;3;3;3;3;3;0.424246818;113.6044846;70480.38281;34941.82031;0.054437414;46596.24219
5017.579901;3;3;3;3;3;3;0.424293757;114.5294571;69757.17188;34830.78125;0.054318555;46521.98438
5017.732301;3;3;3;3;3;3;0.424340695;115.4544296;69033.98438;34719.74609;0.054199684;46447.73047
5017.884701;3;3;3;3;3;3;0.424422741;116.3741989;68236.92969;34601.58984;0.054150455;46361.89453
5018.037101;3;3;3;3;3;3;0.424622089;117.2765884;67192.73438;34459.59375;0.05433413;46237.32031
5018.189501;3;3;3;3;3;3;0.424856246;118.1738205;66075.30469;34310.53125;0.054586824;46101.26563
5018.341901;3;3;3;3;3;3;0.425090402;119.0710602;64957.875;34161.46875;0.054839503;45965.21484
5018.494301;3;3;3;3;3;3;0.425324529;119.9682922;63840.45703;34012.40625;0.055092178;45829.16406
5018.646701;3;3;3;3;3;3;0.425558657;120.8655243;62723.05078;33863.34766;0.055344831;45693.11719
5018.799101;3;3;3;3;3;3;0.425792754;121.7627487;61605.64844;33714.28516;0.05559748;45557.07031
5018.951501;3;3;3;3;3;3;0.426026851;122.6599808;60488.25391;33565.22656;0.055850118;45421.02734
5019.103901;3;3;3;3;3;3;0.426260948;123.5572052;59370.86719;33416.17188;0.05610273;45284.98438
5019.256301;2;3;2;3;3;3;0.426495016;124.4544296;58253.49219;33267.11328;0.056355342;45148.94531
5019.408701;2;3;2;3;3;3;0.426729113;125.3516541;57136.12109;33118.05859;0.056607936;45012.91016
5019.561101;2;3;2;3;3;3;0.426963151;126.2488785;56018.75781;32969.00391;0.056860525;44876.87109
5019.713501;2;3;2;3;3;3;0.427197218;127.1460953;54901.40234;32819.94922;0.057113104;44740.83594
5019.865901;3;3;3;3;3;3;0.427431256;128.0433197;53784.05469;32670.89453;0.057365663;44604.80469
5020.018301;3;3;3;3;3;3;0.427665293;128.9405365;52666.71484;32521.8418;0.057618208;44468.77344
5020.170701;3;3;3;3;3;3;0.427899331;129.8377533;51549.38672;32372.78906;0.057870749;44332.74609
5020.323101;4;3;3;3;3;3;0.428133369;130.7349701;50432.0625;32223.73828;0.058123276;44196.71875
5020.475501;4;3;3;3;3;3;0.428367406;131.6321869;49314.74609;32074.6875;0.058375787;44060.69531
5020.627901;4;3;3;3;3;3;0.428601414;132.5294037;48197.4375;31925.63672;0.058628287;43924.67188
5020.780301;4;3;3;3;3;3;0.428835392;133.4266205;47080.13672;31776.58789;0.058880772;43788.65234
5020.932701;4;3;3;3;3;3;0.4290694;134.323822;45962.84375;31627.53906;0.059133254;43652.63281
5021.085101;3;3;3;3;3;3;0.429303348;135.2210388;44845.55469;31478.49219;0.059385721;43516.61328
5021.237501;3;3;3;3;3;3;0.429537326;136.1182404;43728.28125;31329.44531;0.059638172;43380.59766
5021.389901;3;3;3;3;3;3;0.429771304;137.0154419;42611.00781;31180.39844;0.059890613;43244.58594
5021.542301;2;3;2;3;3;3;0.430005252;137.9126434;41493.75;31031.35352;0.060143046;43108.57422
5021.694701;2;3;2;3;3;3;0.430239171;138.809845;40376.49219;30882.30859;0.060395461;42972.56641
5021.847101;2;3;2;3;3;3;0.430473119;139.7070465;39259.24609;30733.26563;0.060647871;42836.55859
5021.999501;3;3;3;3;3;3;0.430707037;140.6042481;38142.00391;30584.22266;0.060900267;42700.55469
5022.151901;3;3;3;3;3;3;0.430940956;141.5014496;37024.77734;30435.18164;0.061152648;42564.55078
5022.304301;3;3;3;3;3;3;0.431174874;142.3986511;35907.55078;30286.13867;0.061405014;42428.54688
5022.456701;3;3;3;3;3;3;0.431408793;143.2958527;34790.33594;30137.09766;0.061657373;42292.54688
5022.609101;3;3;3;3;3;3;0.431642681;144.1930389;33673.125;29988.05859;0.06190972;42156.54688
5022.761501;3;3;3;3;3;3;0.43187657;145.0902405;32555.92578;29839.01758;0.062162053;42020.55078
5022.913901;3;3;3;3;3;3;0.43215093;143.9256744;31399.71094;29706.49805;0.062653594;41910.89844
5023.066301;3;3;3;3;3;3;0.432490051;139.4651032;30181.11719;29600.38672;0.063527539;41843.35156
5023.218701;3;3;3;3;3;3;0.43284604;134.1440735;28946.23633;29501.16797;0.064501323;41786.79688
5023.371101;3;3;3;3;3;3;0.433202058;128.8232269;27711.35547;29401.94922;0.065475099;41730.24609
5023.523501;3;3;3;3;3;3;0.433558047;123.5025482;26476.47656;29302.72852;0.066448838;41673.69531
5023.675901;3;3;3;3;3;3;0.433914065;118.1820526;25241.59766;29203.50391;0.067422569;41617.14063
5023.828301;3;3;3;3;3;3;0.434270054;112.8617325;24006.71875;29104.27734;0.068396278;41560.58984
5023.980701;3;3;3;3;3;3;0.434626043;107.5415955;22771.8418;29005.05078;0.069369957;41504.03906
5024.133101;3;3;3;3;3;3;0.434982032;102.2216339;21536.96484;28905.82227;0.070343629;41447.48438
5024.285501;3;3;3;3;3;3;0.435337991;96.90184784;20302.08789;28806.5918;0.071317278;41390.93359
5024.437901;3;3;3;3;3;3;0.435693979;91.58223724;19067.21289;28707.35938;0.072290905;41334.38281
5024.590301;3;3;3;3;3;3;0.436049938;86.26280975;17832.33789;28608.125;0.073264509;41277.83203
5024.742701;3;3;3;3;3;3;0.436405897;80.94356537;16597.46289;28508.88867;0.074238099;41221.27734
5024.895101;3;3;3;3;3;3;0.436761856;75.62448883;15362.58887;28409.65039;0.075211667;41164.72656
5025.047501;3;3;3;3;3;3;0.437117815;70.3055954;14127.71582;28310.41016;0.076185212;41108.17578
5025.199901;3;3;3;3;3;3;0.437473774;64.98687744;12892.84375;28211.16797;0.077158742;41051.625
5025.352301;2;3;2;3;3;3;0.437829703;59.66833878;11657.97168;28111.92578;0.078132249;40995.07031
5025.504701;2;3;2;3;3;3;0.438185662;54.3499794;10423.10059;28012.67969;0.079105742;40938.51953
5025.657101;2;3;2;3;3;3;0.438541591;49.0317955;9188.230469;27913.43359;0.080079205;40881.96875
5025.809501;2;3;2;3;3;3;0.43889752;43.71379089;7953.360352;27814.18359;0.081052661;40825.41797
5025.961901;3;3;3;3;3;3;0.439253449;38.39596176;6718.491699;27714.93359;0.082026072;40768.86719
5026.114301;3;3;3;3;3;3;0.439609379;33.07831574;5483.623047;27615.68164;0.082999483;40712.3125
5026.266701;3;3;3;3;3;3;0.439965278;27.76084328;4248.755371;27516.42773;0.083972871;40655.76172
5026.419101;3;3;3;3;3;3;0.440321177;22.44355011;3013.888672;27417.17188;0.084946245;40599.21094
5026.571501;2;3;2;3;3;3;0.440677106;17.12643433;1779.022583;27317.91406;0.085919596;40542.66016
5026.723901;3;3;3;3;3;3;0.441033006;11.80949783;544.1570435;27218.6543;0.086892918;40486.10938
5026.876301;3;3;3;3;3;3;0.441388875;6.492738724;-690.7078247;27119.39258;0.087866224;40429.55859
